freq,intensity
2388.1653,0.12474
2388.4063,0.12609
2388.6472,0.12675
2388.8884,0.12613
2389.1294,0.12488
2389.3706,0.12434
2389.6116,0.1252
2389.8525,0.12687
2390.0938,0.12811
2390.3347,0.12823
2390.5757,0.12758
2390.8169,0.127
2391.0579,0.12706
2391.2991,0.12772
2391.54,0.12869
2391.781,0.12971
2392.0222,0.13054
2392.2632,0.13088
2392.5042,0.1306
2392.7454,0.13009
2392.9863,0.13011
2393.2275,0.13109
2393.4685,0.13259
2393.7095,0.13352
2393.9507,0.13327
2394.1917,0.13233
2394.4326,0.13183
2394.6738,0.13241
2394.9148,0.13362
2395.156,0.13448
2395.397,0.13447
2395.6379,0.13397
2395.8792,0.13369
2396.1201,0.1339
2396.3611,0.13426
2396.6023,0.13436
2396.8433,0.13425
2397.0845,0.13423
2397.3254,0.13446
2397.5664,0.13483
2397.8076,0.13523
2398.0486,0.13586
2398.2896,0.13689
2398.5308,0.13808
2398.7717,0.13882
2399.0129,0.13871
2399.2539,0.13811
2399.4949,0.13787
2399.7361,0.13845
2399.9771,0.13946
2400.218,0.14002
2400.4592,0.13972
2400.7002,0.13902
2400.9414,0.1388
2401.1824,0.13946
2401.4233,0.1407
2401.6646,0.14188
2401.9055,0.14262
2402.1465,0.14292
2402.3877,0.14294
2402.6287,0.14281
2402.8699,0.14275
2403.1108,0.14311
2403.3518,0.14406
2403.593,0.14529
2403.834,0.14609
2404.075,0.14603
2404.3162,0.14551
2404.5571,0.14546
2404.7983,0.14641
2405.0393,0.14788
2405.2803,0.14885
2405.5215,0.14875
2405.7625,0.14804
2406.0034,0.14773
2406.2446,0.14836
2406.4856,0.14954
2406.7268,0.15043
2406.9678,0.15064
2407.2087,0.15048
2407.45,0.1506
2407.6909,0.15128
2407.9319,0.15233
2408.1731,0.15336
2408.4141,0.15411
2408.6553,0.15448
2408.8962,0.15445
2409.1372,0.15414
2409.3784,0.15393
2409.6194,0.15428
2409.8604,0.15537
2410.1016,0.15681
2410.3425,0.15787
2410.5837,0.15819
2410.8247,0.1581
2411.0657,0.15829
2411.3069,0.15916
2411.5479,0.16042
2411.7888,0.16147
2412.03,0.16202
2412.271,0.16234
2412.5122,0.1629
2412.7532,0.16398
2412.9941,0.1654
2413.2354,0.16678
2413.4763,0.16785
2413.7173,0.16849
2413.9585,0.16877
2414.1995,0.16894
2414.4407,0.16938
2414.6816,0.1704
2414.9226,0.17193
2415.1638,0.17344
2415.4048,0.17432
2415.6458,0.17452
2415.887,0.1746
2416.1279,0.17531
2416.3691,0.17686
2416.6101,0.17868
2416.8511,0.18002
2417.0923,0.18061
2417.3333,0.18087
2417.5742,0.18147
2417.8154,0.18269
2418.0564,0.18427
2418.2976,0.1858
2418.5386,0.18705
2418.7795,0.1881
2419.0208,0.18908
2419.2617,0.19006
2419.5027,0.19105
2419.7439,0.19209
2419.9849,0.19314
2420.2261,0.19406
2420.467,0.19467
2420.708,0.19509
2420.9492,0.1957
2421.1902,0.19686
2421.4312,0.19841
2421.6724,0.19976
2421.9133,0.20033
2422.1545,0.2002
2422.3955,0.20007
2422.6365,0.20068
2422.8777,0.20214
2423.1187,0.20387
2423.3596,0.2052
2423.6008,0.20592
2423.8418,0.20632
2424.083,0.20681
2424.324,0.20753
2424.5649,0.20834
2424.8062,0.20908
2425.0471,0.20974
2425.2881,0.21035
2425.5293,0.21095
2425.7703,0.21152
2426.0115,0.21217
2426.2524,0.21304
2426.4934,0.21411
2426.7346,0.2151
2426.9756,0.21566
2427.2166,0.21579
2427.4578,0.21584
2427.6987,0.21627
2427.9399,0.21721
2428.1809,0.21835
2428.4219,0.21925
2428.6631,0.21972
2428.9041,0.21991
2429.145,0.22014
2429.3862,0.22057
2429.6272,0.22122
2429.8684,0.22199
2430.1094,0.22277
2430.3503,0.22343
2430.5916,0.22382
2430.8325,0.22396
2431.0735,0.22409
2431.3147,0.22449
2431.5557,0.22518
2431.7969,0.22583
2432.0378,0.22604
2432.2788,0.22583
2432.52,0.22565
2432.761,0.226
2433.002,0.22689
2433.2432,0.22771
2433.4841,0.22785
2433.7253,0.22723
2433.9663,0.22645
2434.2073,0.22627
2434.4485,0.22696
2434.6895,0.22818
2434.9304,0.2293
2435.1716,0.2299
2435.4126,0.22995
2435.6538,0.2297
2435.8948,0.22948
2436.1357,0.22948
2436.377,0.22971
2436.6179,0.23004
2436.8589,0.23021
2437.1001,0.23013
2437.3411,0.22993
2437.5823,0.22996
2437.8232,0.23045
2438.0642,0.2313
2438.3054,0.23209
2438.5464,0.23246
2438.7874,0.23241
2439.0286,0.23231
2439.2695,0.23248
2439.5107,0.23295
2439.7517,0.2335
2439.9927,0.23392
2440.2339,0.23426
2440.4749,0.2347
2440.7158,0.23539
2440.957,0.23625
2441.198,0.2371
2441.4392,0.2378
2441.6802,0.23836
2441.9211,0.23887
2442.1624,0.23941
2442.4033,0.24009
2442.6443,0.24095
2442.8855,0.242
2443.1265,0.24307
2443.3677,0.24399
2443.6086,0.24466
2443.8496,0.24519
2444.0908,0.24587
2444.3318,0.24687
2444.5728,0.24813
2444.814,0.24936
2445.0549,0.25031
2445.2961,0.2509
2445.5371,0.25129
2445.7781,0.25173
2446.0193,0.25244
2446.2603,0.25344
2446.5012,0.25455
2446.7424,0.25548
2446.9834,0.25604
2447.2246,0.25625
2447.4656,0.25647
2447.7065,0.25707
2447.9478,0.2582
2448.1887,0.25957
2448.4297,0.26068
2448.6709,0.26121
2448.9119,0.26129
2449.1531,0.26139
2449.394,0.26192
2449.635,0.26293
2449.8762,0.2641
2450.1172,0.26507
2450.3582,0.26572
2450.5994,0.26615
2450.8403,0.26658
2451.0815,0.26712
2451.3225,0.26775
2451.5635,0.26838
2451.8047,0.26893
2452.0457,0.26936
2452.2866,0.26969
2452.5278,0.27002
2452.7688,0.27042
2453.01,0.27091
2453.251,0.27135
2453.4919,0.27155
2453.7332,0.27144
2453.9741,0.27113
2454.2151,0.27084
2454.4563,0.27073
2454.6973,0.27077
2454.9385,0.27078
2455.1794,0.27063
2455.4204,0.27038
2455.6616,0.27022
2455.9026,0.27034
2456.1436,0.27074
2456.3848,0.27126
2456.6257,0.27168
2456.8669,0.27185
2457.1079,0.2718
2457.3489,0.27168
2457.5901,0.27166
2457.8311,0.27187
2458.072,0.27227
2458.3132,0.27273
2458.5542,0.2731
2458.7954,0.27339
2459.0364,0.27369
2459.2773,0.27417
2459.5186,0.27487
2459.7595,0.27568
2460.0005,0.27642
2460.2417,0.27699
2460.4827,0.27737
2460.7239,0.27768
2460.9648,0.27805
2461.2058,0.27864
2461.447,0.27953
2461.688,0.28064
2461.929,0.28174
2462.1702,0.28253
2462.4111,0.2829
2462.6523,0.283
2462.8933,0.28322
2463.1343,0.28383
2463.3755,0.28479
2463.6165,0.28579
2463.8574,0.28657
2464.0986,0.28709
2464.3396,0.28756
2464.5808,0.28816
2464.8218,0.28887
2465.0627,0.28953
2465.304,0.29005
2465.5449,0.29049
2465.7859,0.29101
2466.0271,0.29169
2466.2681,0.29249
2466.5093,0.29333
2466.7502,0.29417
2466.9912,0.29506
2467.2324,0.296
2467.4734,0.29692
2467.7144,0.29776
2467.9556,0.29858
2468.1965,0.29948
2468.4377,0.30052
2468.6787,0.30163
2468.9197,0.30268
2469.1609,0.30363
2469.4019,0.30456
2469.6428,0.30559
2469.884,0.30674
2470.125,0.3079
2470.3662,0.30899
2470.6072,0.31002
2470.8481,0.31114
2471.0894,0.31244
2471.3303,0.31386
2471.5713,0.3153
2471.8125,0.31666
2472.0535,0.31796
2472.2947,0.31929
2472.5356,0.32071
2472.7766,0.32224
2473.0178,0.32384
2473.2588,0.32547
2473.4998,0.32711
2473.741,0.32876
2473.9819,0.33043
2474.2231,0.33211
2474.4641,0.33373
2474.7051,0.33524
2474.9463,0.3366
2475.1873,0.33791
2475.4282,0.33928
2475.6694,0.34079
2475.9104,0.34241
2476.1516,0.344
2476.3926,0.34545
2476.6335,0.3468
2476.8748,0.34817
2477.1157,0.34963
2477.3567,0.35113
2477.5979,0.35255
2477.8389,0.35385
2478.0801,0.35514
2478.321,0.35649
2478.562,0.3579
2478.8032,0.35925
2479.0442,0.36045
2479.2852,0.36157
2479.5264,0.36275
2479.7673,0.36411
2480.0085,0.3656
2480.2495,0.3671
2480.4905,0.36851
2480.7317,0.36983
2480.9727,0.37105
2481.2139,0.37216
2481.4548,0.37313
2481.6958,0.37401
2481.937,0.37492
2482.178,0.37595
2482.4189,0.37703
2482.6602,0.37805
2482.9011,0.37897
2483.1423,0.37995
2483.3833,0.38117
2483.6243,0.38269
2483.8655,0.38427
2484.1064,0.38556
2484.3474,0.38645
2484.5886,0.38713
2484.8296,0.38796
2485.0708,0.38913
2485.3118,0.39055
2485.5527,0.39193
2485.7939,0.39304
2486.0349,0.3939
2486.2759,0.3947
2486.5171,0.39562
2486.7581,0.39672
2486.9993,0.39789
2487.2402,0.39901
2487.4812,0.40002
2487.7224,0.40092
2487.9634,0.40184
2488.2043,0.40289
2488.4456,0.40413
2488.6865,0.40547
2488.9277,0.40674
2489.1687,0.40779
2489.4097,0.40858
2489.6509,0.40924
2489.8918,0.40996
2490.1328,0.41084
2490.374,0.41182
2490.615,0.41276
2490.8562,0.41356
2491.0972,0.41429
2491.3381,0.41509
2491.5793,0.41602
2491.8203,0.41703
2492.0613,0.41791
2492.3025,0.41851
2492.5435,0.41882
2492.7847,0.41902
2493.0256,0.41934
2493.2666,0.41989
2493.5078,0.42063
2493.7488,0.42139
2493.9897,0.42199
2494.231,0.42239
2494.4719,0.42267
2494.7131,0.42301
2494.9541,0.42351
2495.1951,0.42416
2495.4363,0.42482
2495.6772,0.42535
2495.9182,0.42561
2496.1594,0.4256
2496.4004,0.42541
2496.6416,0.42518
2496.8826,0.42506
2497.1235,0.42507
2497.3647,0.42515
2497.6057,0.42515
2497.8467,0.42497
2498.0879,0.42466
2498.3289,0.42435
2498.5701,0.42418
2498.811,0.42415
2499.052,0.42413
2499.2932,0.42393
2499.5342,0.42347
2499.7751,0.42281
2500.0164,0.42213
2500.2573,0.42154
2500.4985,0.42105
2500.7395,0.42058
2500.9805,0.42004
2501.2217,0.41939
2501.4626,0.41868
2501.7036,0.41797
2501.9448,0.41733
2502.1858,0.41674
2502.427,0.41611
2502.668,0.41527
2502.9089,0.41409
2503.1501,0.41254
2503.3911,0.41081
2503.6321,0.40917
2503.8733,0.40787
2504.1143,0.40689
2504.3555,0.40605
2504.5964,0.40512
2504.8374,0.40409
2505.0786,0.40308
2505.3196,0.40222
2505.5605,0.40146
2505.8018,0.4006
2506.0427,0.39951
2506.2839,0.3983
2506.5249,0.39724
2506.7659,0.39651
2507.0071,0.39605
2507.248,0.39563
2507.489,0.39507
2507.7302,0.39449
2507.9712,0.39405
2508.2124,0.39385
2508.4534,0.39378
2508.6943,0.39357
2508.9355,0.39308
2509.1765,0.39234
2509.4175,0.39157
2509.6587,0.39103
2509.8997,0.3909
2510.1409,0.3912
2510.3818,0.39169
2510.6228,0.39199
2510.864,0.3918
2511.105,0.39117
2511.3459,0.39055
2511.5872,0.39053
2511.8281,0.39136
2512.0693,0.39267
2512.3103,0.39374
2512.5513,0.39407
2512.7925,0.39371
2513.0334,0.39322
2513.2744,0.39314
2513.5156,0.39354
2513.7566,0.39407
2513.9978,0.39435
2514.2388,0.39429
2514.4797,0.39419
2514.7209,0.39448
2514.9619,0.39534
2515.2029,0.39662
2515.4441,0.39789
2515.6851,0.39874
2515.9263,0.39907
2516.1672,0.39907
2516.4082,0.39916
2516.6494,0.39969
2516.8904,0.40075
2517.1313,0.40206
2517.3726,0.40324
2517.6135,0.4041
2517.8547,0.40473
2518.0957,0.40547
2518.3367,0.40652
2518.5779,0.40786
2518.8188,0.40922
2519.0598,0.41032
2519.301,0.41112
2519.542,0.41181
2519.7832,0.41266
2520.0242,0.41384
2520.2651,0.41527
2520.5063,0.41669
2520.7473,0.41785
2520.9883,0.41875
2521.2295,0.41959
2521.4705,0.42069
2521.7117,0.42221
2521.9526,0.42398
2522.1936,0.42568
2522.4348,0.42709
2522.6758,0.42825
2522.9167,0.42947
2523.158,0.43103
2523.3989,0.43296
2523.6401,0.43504
2523.8811,0.43694
2524.1221,0.43851
2524.3633,0.43981
2524.6042,0.44107
2524.8452,0.44254
2525.0864,0.44437
2525.3274,0.44651
2525.5686,0.44876
2525.8096,0.45088
2526.0505,0.45276
2526.2917,0.45456
2526.5327,0.45656
2526.7737,0.45894
2527.0149,0.46155
2527.2559,0.46401
2527.4971,0.46601
2527.738,0.46759
2527.979,0.46917
2528.2202,0.47126
2528.4612,0.47397
2528.7021,0.477
2528.9434,0.47985
2529.1843,0.48218
2529.4255,0.48411
2529.6665,0.48601
2529.9075,0.4882
2530.1487,0.49068
2530.3896,0.4932
2530.6306,0.49544
2530.8718,0.49733
2531.1128,0.49913
2531.354,0.50117
2531.595,0.50366
2531.8359,0.50651
2532.0771,0.50937
2532.3181,0.5119
2532.5591,0.51397
2532.8003,0.51581
2533.0413,0.51777
2533.2825,0.52017
2533.5234,0.52301
2533.7644,0.52602
2534.0056,0.52875
2534.2466,0.53093
2534.4875,0.53262
2534.7288,0.53419
2534.9697,0.53609
2535.2109,0.53853
2535.4519,0.54136
2535.6929,0.54419
2535.9341,0.5467
2536.175,0.54886
2536.416,0.55094
2536.6572,0.55322
2536.8982,0.55576
2537.1394,0.55836
2537.3804,0.56074
2537.6213,0.56283
2537.8625,0.56478
2538.1035,0.56686
2538.3445,0.5692
2538.5857,0.57173
2538.8267,0.57419
2539.0679,0.57646
2539.3088,0.57852
2539.5498,0.58055
2539.791,0.58268
2540.032,0.58494
2540.2729,0.58715
2540.5142,0.58908
2540.7551,0.59066
2540.9963,0.59201
2541.2373,0.59346
2541.4783,0.59524
2541.7195,0.59737
2541.9604,0.59948
2542.2014,0.60114
2542.4426,0.6021
2542.6836,0.60253
2542.9248,0.60289
2543.1658,0.60362
2543.4067,0.60481
2543.6479,0.60617
2543.8889,0.60729
2544.1299,0.608
2544.3711,0.60844
2544.6121,0.60897
2544.8533,0.60976
2545.0942,0.61072
2545.3352,0.61147
2545.5764,0.61172
2545.8174,0.61145
2546.0583,0.61099
2546.2996,0.61079
2546.5405,0.61107
2546.7817,0.61174
2547.0227,0.61245
2547.2637,0.61286
2547.5049,0.61291
2547.7458,0.61283
2547.9868,0.61296
2548.228,0.61349
2548.469,0.61429
2548.7102,0.61495
2548.9512,0.61512
2549.1921,0.61477
2549.4333,0.61424
2549.6743,0.61405
2549.9153,0.61453
2550.1565,0.61561
2550.3975,0.6168
2550.6387,0.61759
2550.8796,0.61778
2551.1206,0.61762
2551.3618,0.61761
2551.6028,0.61811
2551.8438,0.6191
2552.085,0.62019
2552.3259,0.62093
2552.5671,0.62118
2552.8081,0.6212
2553.0491,0.62146
2553.2903,0.6223
2553.5313,0.62361
2553.7722,0.62493
2554.0134,0.62578
2554.2544,0.62606
2554.4956,0.62616
2554.7366,0.6266
2554.9775,0.62769
2555.2188,0.62918
2555.4597,0.63051
2555.7007,0.6313
2555.9419,0.63154
2556.1829,0.63172
2556.4241,0.63234
2556.665,0.63355
2556.906,0.6351
2557.1472,0.63649
2557.3882,0.63745
2557.6292,0.63811
2557.8704,0.63888
2558.1113,0.64012
2558.3525,0.64184
2558.5935,0.64377
2558.8345,0.64551
2559.0757,0.64689
2559.3167,0.64804
2559.5576,0.6492
2559.7988,0.65062
2560.0398,0.6523
2560.281,0.65407
2560.522,0.65572
2560.7629,0.6572
2561.0042,0.65859
2561.2451,0.66013
2561.4861,0.66203
2561.7273,0.66434
2561.9683,0.66687
2562.2095,0.66914
2562.4504,0.67076
2562.6914,0.6716
2562.9326,0.67199
2563.1736,0.67242
2563.4146,0.67327
2563.6558,0.67446
2563.8967,0.67568
2564.1379,0.67672
2564.3789,0.67769
2564.6199,0.67889
2564.8611,0.6805
2565.1021,0.6823
2565.343,0.68381
2565.5842,0.68476
2565.8252,0.68528
2566.0664,0.68571
2566.3074,0.68636
2566.5483,0.6872
2566.7896,0.68798
2567.0305,0.6885
2567.2715,0.68879
2567.5127,0.68902
2567.7537,0.6894
2567.9949,0.69007
2568.2358,0.69105
2568.4768,0.6923
2568.718,0.69361
2568.959,0.69477
2569.2,0.69564
2569.4412,0.69625
2569.6821,0.69686
2569.9233,0.69769
2570.1643,0.69869
2570.4053,0.69963
2570.6465,0.70026
2570.8875,0.70066
2571.1284,0.70116
2571.3696,0.70208
2571.6106,0.70339
2571.8518,0.70476
2572.0928,0.70581
2572.3337,0.70645
2572.575,0.70692
2572.8159,0.70754
2573.0569,0.70845
2573.2981,0.70951
2573.5391,0.71045
2573.7803,0.71111
2574.0212,0.71151
2574.2622,0.71184
2574.5034,0.71225
2574.7444,0.7128
2574.9854,0.71345
2575.2266,0.71409
2575.4675,0.71466
2575.7087,0.71517
2575.9497,0.71572
2576.1907,0.71638
2576.4319,0.71722
2576.6729,0.71814
2576.9138,0.71895
2577.155,0.71945
2577.396,0.71957
2577.6372,0.71938
2577.8782,0.71913
2578.1191,0.71907
2578.3604,0.71931
2578.6013,0.7198
2578.8423,0.72033
2579.0835,0.72065
2579.3245,0.72072
2579.5657,0.72067
2579.8066,0.72073
2580.0476,0.72102
2580.2888,0.72142
2580.5298,0.7217
2580.7708,0.72165
2581.012,0.72137
2581.2529,0.72117
2581.4941,0.72134
2581.7351,0.72192
2581.9761,0.72264
2582.2173,0.72312
2582.4583,0.72314
2582.6992,0.72277
2582.9404,0.72226
2583.1814,0.72182
2583.4226,0.72153
2583.6636,0.72131
2583.9045,0.72101
2584.1458,0.72054
2584.3867,0.71998
2584.6277,0.71948
2584.8689,0.71919
2585.1099,0.71911
2585.3511,0.71907
2585.592,0.71872
2585.833,0.71789
2586.0742,0.7167
2586.3152,0.71563
2586.5562,0.71506
2586.7974,0.71506
2587.0383,0.71516
2587.2795,0.71477
2587.5205,0.71358
2587.7615,0.71179
2588.0027,0.70993
2588.2437,0.70849
2588.4846,0.70758
2588.7258,0.70696
2588.9668,0.70633
2589.208,0.70552
2589.449,0.70447
2589.6899,0.7032
2589.9312,0.70174
2590.1721,0.70011
2590.4131,0.69841
2590.6543,0.69681
2590.8953,0.69544
2591.1365,0.69435
2591.3774,0.69351
2591.6184,0.69279
2591.8596,0.69201
2592.1006,0.691
2592.3416,0.68971
2592.5828,0.68822
2592.8237,0.6868
2593.0649,0.68571
2593.3059,0.6851
2593.5469,0.68496
2593.7881,0.68509
2594.0291,0.68521
2594.27,0.68506
2594.5112,0.68443
2594.7522,0.68338
2594.9934,0.68229
2595.2344,0.68164
2595.4753,0.68178
2595.7166,0.68267
2595.9575,0.68386
2596.1985,0.68492
2596.4397,0.68566
2596.6807,0.68633
2596.9219,0.68727
2597.1628,0.68861
2597.4038,0.69024
2597.645,0.69196
2597.886,0.69367
2598.127,0.69537
2598.3682,0.69706
2598.6091,0.6986
2598.8503,0.69988
2599.0913,0.70097
2599.3323,0.70218
2599.5735,0.70375
2599.8145,0.70573
2600.0554,0.70786
2600.2966,0.70984
2600.5376,0.71153
2600.7788,0.7131
2601.0198,0.71483
2601.2607,0.7169
2601.502,0.71927
2601.7429,0.72171
2601.9839,0.724
2602.2251,0.72603
2602.4661,0.72787
2602.7073,0.72971
2602.9482,0.73166
2603.1892,0.73379
2603.4304,0.73595
2603.6714,0.73798
2603.9124,0.73975
2604.1536,0.74127
2604.3945,0.74271
2604.6357,0.74421
2604.8767,0.74585
2605.1177,0.74761
2605.3589,0.74939
2605.5999,0.75108
2605.8408,0.75262
2606.082,0.75402
2606.323,0.75534
2606.5642,0.75666
2606.8052,0.75804
2607.0461,0.75946
2607.2874,0.76089
2607.5283,0.76223
2607.7693,0.76353
2608.0105,0.76486
2608.2515,0.76625
2608.4927,0.76766
2608.7336,0.76902
2608.9746,0.77033
2609.2158,0.77169
2609.4568,0.77322
2609.6978,0.77493
2609.939,0.77666
2610.1799,0.77821
2610.4211,0.77951
2610.6621,0.78067
2610.9031,0.78192
2611.1443,0.78339
2611.3853,0.78501
2611.6262,0.78664
2611.8674,0.78818
2612.1084,0.78964
2612.3496,0.79108
2612.5906,0.79258
2612.8315,0.79419
2613.0728,0.7959
2613.3137,0.79771
2613.5547,0.79958
2613.7959,0.80133
2614.0369,0.80289
2614.2781,0.80422
2614.519,0.80547
2614.76,0.80687
2615.0012,0.8085
2615.2422,0.8103
2615.4832,0.81211
2615.7244,0.81377
2615.9653,0.81526
2616.2065,0.8166
2616.4475,0.81785
2616.6885,0.81911
2616.9297,0.82049
2617.1707,0.82217
2617.4116,0.82424
2617.6528,0.82661
2617.8938,0.82898
2618.135,0.831
2618.376,0.83257
2618.6169,0.83379
2618.8582,0.83495
2619.0991,0.83628
2619.3401,0.83779
2619.5813,0.83935
2619.8223,0.84081
2620.0635,0.84214
2620.3044,0.84342
2620.5454,0.8448
2620.7866,0.84637
2621.0276,0.84814
2621.2686,0.85
2621.5098,0.85179
2621.7507,0.85335
2621.9919,0.85467
2622.2329,0.85584
2622.4739,0.85703
2622.7151,0.85834
2622.9561,0.8597
2623.197,0.86098
2623.4382,0.86207
2623.6792,0.86296
2623.9204,0.86378
2624.1614,0.86453
2624.4023,0.86515
2624.6436,0.86554
2624.8845,0.8657
2625.1255,0.86589
2625.3667,0.86634
2625.6077,0.86716
2625.8489,0.86814
2626.0898,0.86888
2626.3308,0.86919
2626.572,0.86912
2626.813,0.86895
2627.054,0.86896
2627.2952,0.86918
2627.5361,0.86945
2627.7773,0.86963
2628.0183,0.86973
2628.2593,0.86989
2628.5005,0.87016
2628.7415,0.87038
2628.9824,0.87037
2629.2236,0.87009
2629.4646,0.86979
2629.7058,0.86983
2629.9468,0.87035
2630.1877,0.87114
2630.429,0.87176
2630.6699,0.87189
2630.9109,0.87153
2631.1521,0.87096
2631.3931,0.87048
2631.6343,0.87027
2631.8752,0.87026
2632.1162,0.87039
2632.3574,0.87057
2632.5984,0.87076
2632.8394,0.87092
2633.0806,0.87098
2633.3215,0.87099
2633.5627,0.87104
2633.8037,0.87121
2634.0447,0.87148
2634.2859,0.87166
2634.5269,0.87155
2634.7678,0.87113
2635.009,0.87056
2635.25,0.87007
2635.4912,0.86978
2635.7322,0.86962
2635.9731,0.86947
2636.2144,0.86929
2636.4553,0.86912
2636.6963,0.86907
2636.9375,0.8692
2637.1785,0.86949
2637.4197,0.86985
2637.6606,0.87016
2637.9016,0.87026
2638.1428,0.87004
2638.3838,0.8696
2638.6248,0.86917
2638.866,0.86907
2639.1069,0.86938
2639.3481,0.86983
2639.5891,0.86998
2639.8301,0.86962
2640.0713,0.86895
2640.3123,0.86849
2640.5532,0.8686
2640.7944,0.86918
2641.0354,0.86972
2641.2766,0.86974
2641.5176,0.86918
2641.7585,0.86842
2641.9998,0.86789
2642.2407,0.86777
2642.4817,0.86781
2642.7229,0.86769
2642.9639,0.86726
2643.2051,0.86663
2643.446,0.86603
2643.687,0.86555
2643.9282,0.86519
2644.1692,0.86484
2644.4102,0.86448
2644.6514,0.86413
2644.8923,0.86375
2645.1335,0.86326
2645.3745,0.86251
2645.6155,0.86154
2645.8567,0.86049
2646.0977,0.85947
2646.3386,0.85854
2646.5798,0.8576
2646.8208,0.85652
2647.062,0.85533
2647.303,0.85414
2647.5439,0.853
2647.7852,0.85183
2648.0261,0.85042
2648.2671,0.8486
2648.5083,0.84649
2648.7493,0.8444
2648.9905,0.84266
2649.2314,0.84137
2649.4724,0.84031
2649.7136,0.83913
2649.9546,0.83769
2650.1956,0.83602
2650.4368,0.83431
2650.6777,0.83265
2650.9189,0.83098
2651.1599,0.82919
2651.4009,0.82725
2651.6421,0.82526
2651.8831,0.82331
2652.124,0.82141
2652.3652,0.81944
2652.6062,0.81729
2652.8474,0.81493
2653.0884,0.81242
2653.3293,0.80991
2653.5706,0.80753
2653.8115,0.80537
2654.0525,0.80344
2654.2937,0.80161
2654.5347,0.79966
2654.7759,0.79738
2655.0168,0.79477
2655.2578,0.79206
2655.499,0.78955
2655.74,0.78739
2655.981,0.78539
2656.2222,0.78319
2656.4631,0.78055
2656.7043,0.77752
2656.9453,0.77445
2657.1863,0.77165
2657.4275,0.76917
2657.6685,0.76678
2657.9094,0.7642
2658.1506,0.7613
2658.3916,0.7582
2658.6328,0.75521
2658.8738,0.75255
2659.1147,0.75021
2659.356,0.74797
2659.5969,0.74555
2659.8379,0.7428
2660.0791,0.73986
2660.3201,0.7371
2660.5613,0.73476
2660.8022,0.73282
2661.0432,0.73092
2661.2844,0.72868
2661.5254,0.72598
2661.7664,0.72309
2662.0076,0.72043
2662.2485,0.71828
2662.4897,0.71653
2662.7307,0.71488
2662.9717,0.71308
2663.2129,0.71112
2663.4539,0.70918
2663.6948,0.70749
2663.936,0.70615
2664.177,0.70514
2664.4182,0.7044
2664.6592,0.70383
2664.9001,0.70336
2665.1414,0.70293
2665.3823,0.70255
2665.6233,0.70226
2665.8645,0.70209
2666.1055,0.70202
2666.3467,0.70196
2666.5876,0.7019
2666.8286,0.70196
2667.0698,0.70232
2667.3108,0.70307
2667.5518,0.70403
2667.793,0.70494
2668.0339,0.7056
2668.2751,0.70613
2668.5161,0.70685
2668.7571,0.70808
2668.9983,0.70983
2669.2393,0.71181
2669.4802,0.71367
2669.7214,0.71525
2669.9624,0.71669
2670.2036,0.71831
2670.4446,0.72036
2670.6855,0.72281
2670.9268,0.72539
2671.1677,0.72776
2671.4087,0.72977
2671.6499,0.7316
2671.8909,0.73363
2672.1321,0.73609
2672.373,0.7389
2672.614,0.74172
2672.8552,0.74425
2673.0962,0.74653
2673.3372,0.74895
2673.5784,0.7519
2673.8193,0.75545
2674.0605,0.75924
2674.3015,0.76276
2674.5425,0.76575
2674.7837,0.76837
2675.0247,0.77105
2675.2656,0.77415
2675.5068,0.77772
2675.7478,0.78154
2675.989,0.78533
2676.23,0.78894
2676.4709,0.79245
2676.7122,0.79602
2676.9531,0.79982
2677.1941,0.80388
2677.4353,0.8081
2677.6763,0.81228
2677.9175,0.81624
2678.1584,0.81997
2678.3994,0.82363
2678.6406,0.82745
2678.8816,0.83161
2679.1226,0.83603
2679.3638,0.84045
2679.6047,0.84464
2679.8459,0.84855
2680.0869,0.85237
2680.3279,0.85641
2680.5691,0.86086
2680.8101,0.86565
2681.051,0.87046
2681.2922,0.87494
2681.5332,0.87895
2681.7744,0.88271
2682.0154,0.88662
2682.2563,0.89097
2682.4976,0.89564
2682.7385,0.9002
2682.9795,0.90423
2683.2207,0.90769
2683.4617,0.91095
2683.7029,0.91446
2683.9438,0.91843
2684.1848,0.92262
2684.426,0.92659
2684.667,0.9301
2684.908,0.93327
2685.1492,0.93645
2685.3901,0.93989
2685.6313,0.94358
2685.8723,0.9473
2686.1133,0.95078
2686.3545,0.95391
2686.5955,0.95671
2686.8364,0.95929
2687.0776,0.96176
2687.3186,0.96427
2687.5598,0.96687
2687.8008,0.96953
2688.0417,0.97215
2688.283,0.97462
2688.5239,0.97691
2688.7649,0.97907
2689.0061,0.9811
2689.2471,0.98291
2689.4883,0.9844
2689.7292,0.98558
2689.9702,0.98669
2690.2114,0.98797
2690.4524,0.98955
2690.6934,0.99125
2690.9346,0.99273
2691.1755,0.99377
2691.4167,0.99443
2691.6577,0.99496
2691.8987,0.99565
2692.1399,0.99663
2692.3809,0.99779
2692.6218,0.99889
2692.863,0.99969
2693.104,1.00015
2693.3452,1.0004
2693.5862,1.00072
2693.8271,1.00127
2694.0684,1.00209
2694.3093,1.00297
2694.5503,1.00366
2694.7915,1.004
2695.0325,1.0041
2695.2737,1.00416
2695.5146,1.00429
2695.7556,1.00444
2695.9968,1.00445
2696.2378,1.0042
2696.4788,1.00377
2696.72,1.00328
2696.9609,1.00284
2697.2021,1.00245
2697.4431,1.00196
2697.6841,1.00132
2697.9253,1.00054
2698.1663,0.99976
2698.4072,0.99904
2698.6484,0.99838
2698.8894,0.99766
2699.1306,0.99678
2699.3716,0.99576
2699.6125,0.99473
2699.8538,0.99387
2700.0947,0.99332
2700.3357,0.99306
2700.5769,0.99286
2700.8179,0.99241
2701.0591,0.99142
2701.3,0.98981
2701.541,0.98776
2701.7822,0.98562
2702.0232,0.9838
2702.2642,0.98246
2702.5054,0.98153
2702.7463,0.98067
2702.9875,0.97954
2703.2285,0.97797
2703.4695,0.97601
2703.7107,0.97396
2703.9517,0.97207
2704.1926,0.97042
2704.4338,0.96892
2704.6748,0.96742
2704.916,0.96584
2705.157,0.9643
2705.3979,0.96299
2705.6392,0.96197
2705.8801,0.96114
2706.1211,0.96026
2706.3623,0.95916
2706.6033,0.9578
2706.8445,0.95636
2707.0854,0.95501
2707.3264,0.95385
2707.5676,0.95283
2707.8086,0.95183
2708.0496,0.95076
2708.2908,0.94957
2708.5317,0.94831
2708.7729,0.94697
2709.0139,0.94549
2709.2549,0.94382
2709.4961,0.94201
2709.7371,0.94024
2709.978,0.93873
2710.2192,0.93764
2710.4602,0.93693
2710.7014,0.93636
2710.9424,0.93565
2711.1833,0.93459
2711.4246,0.93317
2711.6655,0.93155
2711.9065,0.92998
2712.1477,0.92857
2712.3887,0.92734
2712.6299,0.92612
2712.8708,0.92477
2713.1118,0.92327
2713.353,0.92179
2713.594,0.92053
2713.835,0.91959
2714.0762,0.91879
2714.3171,0.91777
2714.5583,0.91627
2714.7993,0.91431
2715.0403,0.91215
2715.2815,0.91009
2715.5225,0.90828
2715.7634,0.90665
2716.0046,0.90506
2716.2456,0.90338
2716.4868,0.90161
2716.7278,0.89978
2716.9688,0.89798
2717.21,0.89639
2717.4509,0.89518
2717.6919,0.89443
2717.9331,0.89401
2718.1741,0.89349
2718.4153,0.89251
2718.6563,0.89094
2718.8972,0.88902
2719.1384,0.8871
2719.3794,0.88537
2719.6204,0.88372
2719.8616,0.88195
2720.1025,0.88002
2720.3438,0.8781
2720.5847,0.87641
2720.8257,0.87493
2721.0669,0.87334
2721.3079,0.87137
2721.5488,0.869
2721.79,0.86654
2722.031,0.86449
2722.2722,0.86309
2722.5132,0.86225
2722.7542,0.86157
2722.9954,0.86058
2723.2363,0.85908
2723.4773,0.85716
2723.7185,0.85516
2723.9595,0.85342
2724.2007,0.85205
2724.4417,0.85085
2724.6826,0.84951
2724.9238,0.84781
2725.1648,0.84585
2725.4058,0.84395
2725.647,0.84227
2725.8879,0.84074
2726.1292,0.83911
2726.3701,0.83723
2726.6111,0.83527
2726.8523,0.83358
2727.0933,0.83237
2727.3342,0.83149
2727.5754,0.83052
2727.8164,0.82906
2728.0576,0.82708
2728.2986,0.82489
2728.5396,0.82286
2728.7808,0.82112
2729.0217,0.81953
2729.2627,0.81782
2729.5039,0.81585
2729.7449,0.81364
2729.9861,0.81134
2730.2271,0.80909
2730.468,0.80688
2730.7092,0.80464
2730.9502,0.80228
2731.1912,0.79974
2731.4324,0.79703
2731.6733,0.79422
2731.9146,0.79138
2732.1555,0.78855
2732.3965,0.78579
2732.6377,0.78313
2732.8787,0.78057
2733.1196,0.77811
2733.3608,0.77569
2733.6018,0.77322
2733.843,0.77058
2734.084,0.76769
2734.325,0.76452
2734.5662,0.76117
2734.8071,0.75781
2735.0481,0.7547
2735.2893,0.75201
2735.5303,0.74976
2735.7715,0.74773
2736.0125,0.74554
2736.2534,0.74288
2736.4946,0.73974
2736.7356,0.73635
2736.9766,0.73309
2737.2178,0.73019
2737.4587,0.72763
2737.7,0.72522
2737.9409,0.72279
2738.1819,0.7203
2738.4231,0.71786
2738.6641,0.71559
2738.905,0.71351
2739.1462,0.71156
2739.3872,0.70956
2739.6284,0.70745
2739.8694,0.70526
2740.1104,0.70319
2740.3516,0.70142
2740.5925,0.70005
2740.8335,0.69897
2741.0747,0.69793
2741.3157,0.6967
2741.5569,0.69524
2741.7979,0.69365
2742.0388,0.69211
2742.28,0.69075
2742.521,0.68963
2742.762,0.68879
2743.0032,0.68829
2743.2441,0.68812
2743.4854,0.68813
2743.7263,0.68815
2743.9673,0.68802
2744.2085,0.68779
2744.4495,0.68763
2744.6904,0.68774
2744.9316,0.68814
2745.1726,0.68878
2745.4138,0.68955
2745.6548,0.69042
2745.8958,0.69139
2746.137,0.69243
2746.3779,0.69348
2746.6189,0.69449
2746.8601,0.69555
2747.1011,0.69679
2747.3423,0.69824
2747.5833,0.69982
2747.8242,0.70139
2748.0654,0.70288
2748.3064,0.70438
2748.5474,0.70601
2748.7886,0.70785
2749.0295,0.70982
2749.2708,0.71175
2749.5117,0.71354
2749.7527,0.7152
2749.9939,0.71685
2750.2349,0.71862
2750.4758,0.72057
2750.717,0.72271
2750.958,0.72492
2751.1992,0.72711
2751.4402,0.72923
2751.6812,0.73136
2751.9224,0.73361
2752.1633,0.73602
2752.4043,0.73843
2752.6455,0.74059
2752.8865,0.74239
2753.1277,0.74393
2753.3687,0.74553
2753.6096,0.74741
2753.8508,0.74958
2754.0918,0.75184
2754.3328,0.75399
2754.574,0.75593
2754.8149,0.75771
2755.0562,0.75941
2755.2971,0.76108
2755.5381,0.76283
2755.7793,0.76476
2756.0203,0.76693
2756.2612,0.76923
2756.5024,0.77148
2756.7434,0.7735
2756.9846,0.77531
2757.2256,0.77705
2757.4666,0.77883
2757.7078,0.78061
2757.9487,0.78227
2758.1897,0.7838
2758.4309,0.7854
2758.6719,0.78728
2758.9131,0.78952
2759.1541,0.79198
2759.395,0.79443
2759.6362,0.79676
2759.8772,0.79898
2760.1182,0.80113
2760.3594,0.8032
2760.6003,0.80517
2760.8416,0.80716
2761.0825,0.80938
2761.3235,0.81191
2761.5647,0.81459
2761.8057,0.81708
2762.0466,0.81914
2762.2878,0.82088
2762.5288,0.82265
2762.77,0.82477
2763.011,0.82721
2763.252,0.82965
2763.4932,0.83172
2763.7341,0.83333
2763.9751,0.83461
2764.2163,0.83588
2764.4573,0.83737
2764.6985,0.83916
2764.9395,0.84115
2765.1804,0.84317
2765.4216,0.84498
2765.6626,0.84643
2765.9036,0.8475
2766.1448,0.84829
2766.3857,0.84898
2766.627,0.84968
2766.8679,0.85043
2767.1089,0.85123
2767.3501,0.85201
2767.5911,0.85273
2767.832,0.85336
2768.0732,0.85389
2768.3142,0.85434
2768.5554,0.85472
2768.7964,0.85503
2769.0374,0.85516
2769.2786,0.85499
2769.5195,0.85451
2769.7605,0.85386
2770.0017,0.85323
2770.2427,0.8527
2770.4839,0.85217
2770.7249,0.85142
2770.9658,0.85043
2771.207,0.84934
2771.448,0.84839
2771.689,0.84768
2771.9302,0.84711
2772.1711,0.8465
2772.4124,0.8458
2772.6533,0.84503
2772.8943,0.84422
2773.1355,0.84326
2773.3765,0.84198
2773.6174,0.8403
2773.8586,0.83838
2774.0996,0.83657
2774.3408,0.83512
2774.5818,0.83413
2774.8228,0.83345
2775.064,0.83284
2775.3049,0.83212
2775.5459,0.83125
2775.7871,0.83037
2776.0281,0.82967
2776.2693,0.82931
2776.5103,0.82923
2776.7512,0.8292
2776.9924,0.82891
2777.2334,0.82826
2777.4744,0.82742
2777.7156,0.82671
2777.9565,0.82632
2778.1978,0.82613
2778.4387,0.82578
2778.6797,0.82503
2778.9209,0.82396
2779.1619,0.82295
2779.4028,0.82236
2779.644,0.82225
2779.885,0.82231
2780.1262,0.82209
2780.3672,0.82132
2780.6082,0.82004
2780.8494,0.81855
2781.0903,0.81716
2781.3313,0.81596
2781.5725,0.81487
2781.8135,0.81367
2782.0547,0.81226
2782.2957,0.81064
2782.5366,0.80895
2782.7778,0.80724
2783.0188,0.80549
2783.2598,0.80362
2783.501,0.80154
2783.7419,0.79926
2783.9832,0.79685
2784.2241,0.79439
2784.4651,0.79194
2784.7063,0.78955
2784.9473,0.78724
2785.1882,0.78503
2785.4294,0.78288
2785.6704,0.78071
2785.9116,0.77849
2786.1526,0.77623
2786.3936,0.774
2786.6348,0.77177
2786.8757,0.76945
2787.1167,0.76692
2787.3579,0.76415
2787.5989,0.76134
2787.8401,0.75873
2788.0811,0.75649
2788.322,0.75458
2788.5632,0.75277
2788.8042,0.75087
2789.0452,0.74883
2789.2864,0.74672
2789.5273,0.74465
2789.7686,0.74265
2790.0095,0.7406
2790.2505,0.73838
2790.4917,0.73595
2790.7327,0.73339
2790.9736,0.73092
2791.2148,0.7287
2791.4558,0.72673
2791.697,0.72484
2791.938,0.72274
2792.179,0.72033
2792.4202,0.71771
2792.6611,0.71515
2792.9021,0.71282
2793.1433,0.71067
2793.3843,0.70841
2793.6255,0.70583
2793.8665,0.70293
2794.1074,0.6999
2794.3486,0.69697
2794.5896,0.69417
2794.8306,0.69136
2795.0718,0.68845
2795.3127,0.68544
2795.554,0.68246
2795.7949,0.67965
2796.0359,0.67706
2796.2771,0.67464
2796.5181,0.6723
2796.759,0.66991
2797.0002,0.66733
2797.2412,0.66452
2797.4824,0.66157
2797.7234,0.65877
2797.9644,0.65638
2798.2056,0.65447
2798.4465,0.65284
2798.6875,0.65119
2798.9287,0.64935
2799.1697,0.64737
2799.4109,0.64546
2799.6519,0.64375
2799.8928,0.64221
2800.134,0.6407
2800.375,0.63915
2800.616,0.63762
2800.8572,0.63627
2801.0981,0.6352
2801.3394,0.63441
2801.5803,0.63378
2801.8213,0.63317
2802.0625,0.63254
2802.3035,0.63194
2802.5444,0.63154
2802.7856,0.63147
2803.0266,0.6317
2803.2678,0.632
2803.5088,0.6321
2803.7498,0.6319
2803.991,0.63163
2804.2319,0.63163
2804.4729,0.63207
2804.7141,0.63278
2804.9551,0.63338
2805.1963,0.63365
2805.4373,0.63376
2805.6782,0.63408
2805.9194,0.63486
2806.1604,0.63601
2806.4014,0.63721
2806.6426,0.63813
2806.8835,0.63873
2807.1248,0.63916
2807.3657,0.63964
2807.6067,0.64036
2807.8479,0.64136
2808.0889,0.6426
2808.3298,0.6439
2808.571,0.64502
2808.812,0.64582
2809.0532,0.64637
2809.2942,0.64699
2809.5352,0.64797
2809.7764,0.64934
2810.0173,0.65081
2810.2583,0.65205
2810.4995,0.65297
2810.7405,0.65381
2810.9817,0.65488
2811.2227,0.65622
2811.4636,0.65754
2811.7048,0.65842
2811.9458,0.65873
2812.1868,0.65867
2812.428,0.65869
2812.6689,0.65911
2812.9102,0.66
2813.1511,0.66112
2813.3921,0.66214
2813.6333,0.66284
2813.8743,0.66321
2814.1152,0.66346
2814.3564,0.66392
2814.5974,0.66479
2814.8386,0.66596
2815.0796,0.66714
2815.3206,0.66801
2815.5618,0.66849
2815.8027,0.66882
2816.0437,0.66934
2816.2849,0.67017
2816.5259,0.67114
2816.7671,0.67186
2817.0081,0.67216
2817.249,0.67218
2817.4902,0.67234
2817.7312,0.67302
2817.9722,0.67427
2818.2134,0.67573
2818.4543,0.67689
2818.6956,0.67748
2818.9365,0.67764
2819.1775,0.67786
2819.4187,0.67859
2819.6597,0.67992
2819.9006,0.68149
2820.1418,0.6828
2820.3828,0.68357
2820.624,0.684
2820.865,0.68456
2821.106,0.68559
2821.3472,0.68701
2821.5881,0.6884
2821.8291,0.68932
2822.0703,0.68966
2822.3113,0.68969
2822.5525,0.68985
2822.7935,0.6905
2823.0344,0.69167
2823.2756,0.69314
2823.5166,0.6946
2823.7576,0.69586
2823.9988,0.69692
2824.2397,0.69803
2824.481,0.69941
2824.7219,0.70112
2824.9629,0.70296
2825.2041,0.70456
2825.4451,0.70569
2825.686,0.70639
2825.9272,0.70698
2826.1682,0.7078
2826.4094,0.70898
2826.6504,0.71042
2826.8914,0.71191
2827.1326,0.71333
2827.3735,0.71474
2827.6145,0.71625
2827.8557,0.71797
2828.0967,0.71991
2828.3379,0.72196
2828.5789,0.72398
2828.8198,0.72588
2829.061,0.72763
2829.302,0.72931
2829.543,0.73103
2829.7842,0.73281
2830.0251,0.73456
2830.2664,0.73616
2830.5073,0.73755
2830.7483,0.73882
2830.9895,0.7402
2831.2305,0.74182
2831.4714,0.74366
2831.7126,0.74559
2831.9536,0.74751
2832.1948,0.74943
2832.4358,0.75142
2832.6768,0.75346
2832.918,0.75536
2833.1589,0.75694
2833.3999,0.75808
2833.6411,0.75889
2833.8821,0.75958
2834.1233,0.76034
2834.3643,0.76126
2834.6052,0.76232
2834.8464,0.76337
2835.0874,0.76426
2835.3284,0.76487
2835.5696,0.76518
2835.8105,0.76526
2836.0518,0.76521
2836.2927,0.76507
2836.5337,0.76481
2836.7749,0.76437
2837.0159,0.76376
2837.2568,0.76303
2837.498,0.76225
2837.739,0.76143
2837.9802,0.76054
2838.2212,0.75958
2838.4622,0.75853
2838.7034,0.75739
2838.9443,0.75609
2839.1853,0.75463
2839.4265,0.75311
2839.6675,0.75171
2839.9087,0.75053
2840.1497,0.74938
2840.3906,0.74793
2840.6318,0.74589
2840.8728,0.74336
2841.1138,0.7407
2841.355,0.73828
2841.5959,0.73615
2841.8372,0.73408
2842.0781,0.73174
2842.3191,0.72899
2842.5603,0.72597
2842.8013,0.72291
2843.0422,0.71999
2843.2834,0.71726
2843.5244,0.71476
2843.7656,0.71248
2844.0066,0.71037
2844.2476,0.70833
2844.4888,0.70621
2844.7297,0.70393
2844.9707,0.70144
2845.2119,0.69874
2845.4529,0.69578
2845.6941,0.69258
2845.9351,0.68924
2846.176,0.68596
2846.4172,0.68295
2846.6582,0.68021
2846.8992,0.67765
2847.1404,0.67515
2847.3813,0.67271
2847.6226,0.67046
2847.8635,0.66845
2848.1045,0.66661
2848.3457,0.66474
2848.5867,0.66266
2848.8276,0.66035
2849.0688,0.65788
2849.3098,0.6554
2849.551,0.65298
2849.792,0.65063
2850.033,0.64827
2850.2742,0.64584
2850.5151,0.64335
2850.7561,0.64089
2850.9973,0.63865
2851.2383,0.6367
2851.4795,0.63491
2851.7205,0.63299
2851.9614,0.63073
2852.2026,0.62817
2852.4436,0.62563
2852.6846,0.6234
2852.9258,0.62151
2853.1667,0.6197
2853.408,0.61766
2853.6489,0.61527
2853.8899,0.61265
2854.1311,0.61
2854.3721,0.60735
2854.613,0.60471
2854.8542,0.60205
2855.0952,0.59949
2855.3364,0.59709
2855.5774,0.5948
2855.8184,0.59248
2856.0596,0.59006
2856.3005,0.58762
2856.5415,0.58529
2856.7827,0.58307
2857.0237,0.5808
2857.2649,0.57833
2857.5059,0.5757
2857.7468,0.57308
2857.988,0.57059
2858.229,0.56814
2858.47,0.56554
2858.7112,0.56272
2858.9521,0.55986
2859.1934,0.5572
2859.4343,0.55485
2859.6753,0.55266
2859.9165,0.55043
2860.1575,0.54809
2860.3984,0.54573
2860.6396,0.54352
2860.8806,0.54153
2861.1218,0.53971
2861.3628,0.53794
2861.6038,0.53612
2861.845,0.53417
2862.0859,0.5321
2862.3269,0.52999
2862.5681,0.52802
2862.8091,0.52628
2863.0503,0.52469
2863.2913,0.52303
2863.5322,0.52112
2863.7734,0.51905
2864.0144,0.51709
2864.2554,0.51544
2864.4966,0.51403
2864.7375,0.51255
2864.9788,0.51074
2865.2197,0.50866
2865.4607,0.50657
2865.7019,0.50475
2865.9429,0.50325
2866.1838,0.50193
2866.425,0.50063
2866.666,0.49926
2866.9072,0.49778
2867.1482,0.49619
2867.3892,0.4945
2867.6304,0.49285
2867.8713,0.49141
2868.1123,0.49022
2868.3535,0.48918
2868.5945,0.48809
2868.8357,0.48685
2869.0767,0.48557
2869.3176,0.48436
2869.5588,0.48324
2869.7998,0.48206
2870.0408,0.48069
2870.282,0.47913
2870.5229,0.47752
2870.7642,0.47602
2871.0051,0.4747
2871.2461,0.47357
2871.4873,0.47264
2871.7283,0.47189
2871.9692,0.47123
2872.2104,0.47057
2872.4514,0.46989
2872.6926,0.46932
2872.9336,0.46901
2873.1746,0.4689
2873.4158,0.46873
2873.6567,0.46829
2873.8977,0.46767
2874.1389,0.46723
2874.3799,0.46724
2874.6211,0.4675
2874.8621,0.46747
2875.103,0.46676
2875.3442,0.46545
2875.5852,0.4641
2875.8262,0.46319
2876.0674,0.46277
2876.3083,0.46251
2876.5496,0.46204
2876.7905,0.46121
2877.0315,0.46014
2877.2727,0.45897
2877.5137,0.45775
2877.7546,0.45652
2877.9958,0.45532
2878.2368,0.45422
2878.478,0.45321
2878.719,0.45226
2878.96,0.45138
2879.2012,0.45059
2879.4421,0.44991
2879.6831,0.44925
2879.9243,0.44847
2880.1653,0.44757
2880.4065,0.44661
2880.6475,0.44568
2880.8884,0.44471
2881.1296,0.44354
2881.3706,0.44231
2881.6116,0.44134
2881.8528,0.44095
2882.0938,0.44113
2882.335,0.44142
2882.5759,0.44139
2882.8169,0.44108
2883.0581,0.44087
2883.2991,0.44105
2883.54,0.4414
2883.7813,0.44137
2884.0222,0.4407
2884.2634,0.43969
2884.5044,0.43904
2884.7454,0.43918
2884.9866,0.4399
2885.2275,0.44063
2885.4685,0.44094
2885.7097,0.44086
2885.9507,0.44072
2886.1919,0.44082
2886.4329,0.44123
2886.6738,0.44196
2886.915,0.44301
2887.156,0.44435
2887.397,0.44581
2887.6382,0.44711
2887.8792,0.44807
2888.1204,0.44877
2888.3613,0.44949
2888.6023,0.45039
2888.8435,0.45143
2889.0845,0.45239
2889.3254,0.4531
2889.5667,0.45357
2889.8076,0.4539
2890.0488,0.45418
2890.2898,0.45448
2890.5308,0.45482
2890.772,0.45528
2891.0129,0.45586
2891.2539,0.45649
2891.4951,0.45704
2891.7361,0.45741
2891.9773,0.45758
2892.2183,0.45757
2892.4592,0.45747
2892.7004,0.45736
2892.9414,0.45739
2893.1824,0.4577
2893.4236,0.45823
2893.6646,0.45878
2893.9058,0.45908
2894.1467,0.45903
2894.3877,0.45877
2894.6289,0.45855
2894.8699,0.45852
2895.1108,0.45866
2895.3521,0.45891
2895.593,0.45929
2895.8342,0.45987
2896.0752,0.4606
2896.3162,0.46129
2896.5574,0.46177
2896.7983,0.46205
2897.0393,0.46228
2897.2805,0.4626
2897.5215,0.46299
2897.7627,0.46327
2898.0037,0.46336
2898.2446,0.46336
2898.4858,0.46347
2898.7268,0.46377
2898.9678,0.46419
2899.209,0.46461
2899.45,0.46501
2899.6912,0.46542
2899.9321,0.46587
2900.1731,0.46636
2900.4143,0.46687
2900.6553,0.4675
2900.8962,0.46838
2901.1375,0.46943
2901.3784,0.47042
2901.6196,0.47113
2901.8606,0.47159
2902.1016,0.47211
2902.3428,0.47295
2902.5837,0.47412
2902.8247,0.47536
2903.0659,0.47645
2903.3069,0.47746
2903.5481,0.47867
2903.7891,0.48022
2904.03,0.48198
2904.2712,0.48362
2904.5122,0.48492
2904.7532,0.4859
2904.9944,0.48677
2905.2354,0.48771
2905.4766,0.48882
2905.7175,0.49011
2905.9585,0.49155
2906.1997,0.4931
2906.4407,0.49461
2906.6816,0.49593
2906.9229,0.49703
2907.1638,0.498
2907.405,0.49896
2907.646,0.49991
2907.887,0.50075
2908.1282,0.50145
2908.3691,0.50216
2908.6101,0.5031
2908.8513,0.5043
2909.0923,0.50555
2909.3335,0.50654
2909.5745,0.5072
2909.8154,0.50772
2910.0566,0.50837
2910.2976,0.50917
2910.5386,0.50989
2910.7798,0.51018
2911.0208,0.50993
2911.262,0.50927
2911.5029,0.50844
2911.7439,0.50765
2911.9851,0.50699
2912.2261,0.50644
2912.467,0.5059
2912.7083,0.50523
2912.9492,0.5043
2913.1904,0.50309
2913.4314,0.50172
2913.6724,0.50035
2913.9136,0.49898
2914.1545,0.49746
2914.3955,0.49559
2914.6367,0.49338
2914.8777,0.49101
2915.1189,0.48868
2915.3599,0.48645
2915.6008,0.48423
2915.842,0.48199
2916.083,0.4798
2916.324,0.47775
2916.5652,0.47576
2916.8062,0.47362
2917.0474,0.4712
2917.2883,0.46859
2917.5293,0.4661
2917.7705,0.46396
2918.0115,0.46221
2918.2524,0.46075
2918.4937,0.45949
2918.7346,0.45841
2918.9758,0.4574
2919.2168,0.45621
2919.4578,0.45457
2919.699,0.45248
2919.9399,0.45028
2920.1809,0.44834
2920.4221,0.4468
2920.6631,0.44544
2920.9043,0.44396
2921.1453,0.44227
2921.3862,0.44053
2921.6274,0.43897
2921.8684,0.43762
2922.1094,0.43641
2922.3506,0.43522
2922.5916,0.43401
2922.8328,0.43272
2923.0737,0.43128
2923.3147,0.42972
2923.5559,0.42829
2923.7969,0.42729
2924.0378,0.42682
2924.2791,0.42655
2924.52,0.42599
2924.7612,0.42494
2925.0022,0.42363
2925.2432,0.42252
2925.4844,0.42183
2925.7253,0.42133
2925.9663,0.42063
2926.2075,0.41962
2926.4485,0.41855
2926.6897,0.41772
2926.9307,0.41718
2927.1716,0.41664
2927.4128,0.41585
2927.6538,0.41479
2927.8948,0.41363
2928.136,0.41255
2928.377,0.41166
2928.6182,0.41102
2928.8591,0.41081
2929.1001,0.41112
2929.3413,0.41182
2929.5823,0.41254
2929.8232,0.41297
2930.0645,0.4131
2930.3054,0.41318
2930.5466,0.41342
2930.7876,0.41376
2931.0286,0.41391
2931.2698,0.4137
2931.5107,0.41321
2931.7517,0.41272
2931.9929,0.41244
2932.2339,0.41235
2932.4751,0.41227
2932.7161,0.41204
2932.957,0.41159
2933.1982,0.411
2933.4392,0.41042
2933.6802,0.41004
2933.9214,0.41
2934.1624,0.4102
2934.4036,0.4103
2934.6445,0.40997
2934.8855,0.4092
2935.1267,0.40836
2935.3677,0.40795
2935.6086,0.40809
2935.8499,0.40842
2936.0908,0.40841
2936.332,0.40789
2936.573,0.40719
2936.814,0.40678
2937.0552,0.40682
2937.2961,0.40692
2937.5371,0.40662
2937.7783,0.40575
2938.0193,0.40463
2938.2605,0.40378
2938.5015,0.40346
2938.7424,0.40355
2938.9836,0.40369
2939.2246,0.40354
2939.4656,0.40299
2939.7068,0.40212
2939.9478,0.40119
2940.189,0.40042
2940.4299,0.39988
2940.6709,0.39937
2940.9121,0.39855
2941.1531,0.39719
2941.394,0.39541
2941.6353,0.39362
2941.8762,0.39224
2942.1174,0.3914
2942.3584,0.39093
2942.5994,0.39055
2942.8406,0.39015
2943.0815,0.38972
2943.3225,0.38936
2943.5637,0.38913
2943.8047,0.38908
2944.0459,0.38917
2944.2869,0.38921
2944.5278,0.38886
2944.769,0.38794
2945.01,0.38662
2945.251,0.38547
2945.4922,0.385
2945.7332,0.38524
2945.9744,0.38573
2946.2153,0.38596
2946.4563,0.38592
2946.6975,0.38603
2946.9385,0.3867
2947.1794,0.38781
2947.4207,0.38882
2947.6616,0.38928
2947.9028,0.38928
2948.1438,0.3893
2948.3848,0.38974
2948.626,0.39055
2948.8669,0.39137
2949.1079,0.39193
2949.3491,0.39225
2949.5901,0.39258
2949.8313,0.39308
2950.0723,0.39375
2950.3132,0.3945
2950.5544,0.39523
2950.7954,0.39587
2951.0364,0.39637
2951.2776,0.39679
2951.5186,0.39738
2951.7598,0.39856
2952.0007,0.40061
2952.2417,0.40343
2952.4829,0.4065
2952.7239,0.40921
2952.9648,0.41123
2953.2061,0.41265
2953.447,0.41378
2953.6882,0.41489
2953.9292,0.4161
2954.1702,0.41736
2954.4114,0.41858
2954.6523,0.41973
2954.8933,0.42085
2955.1345,0.42206
2955.3755,0.42351
2955.6167,0.42519
2955.8577,0.42688
2956.0986,0.42821
2956.3398,0.42897
2956.5808,0.42936
2956.8218,0.42987
2957.063,0.43093
2957.304,0.43255
2957.5452,0.43427
2957.7861,0.43562
2958.0271,0.43649
2958.2683,0.43716
2958.5093,0.43806
2958.7502,0.43939
2958.9915,0.44098
2959.2324,0.44244
2959.4736,0.4435
2959.7146,0.44408
2959.9556,0.44439
2960.1968,0.44476
2960.4377,0.44549
2960.6787,0.44664
2960.9199,0.44796
2961.1609,0.44904
2961.4021,0.44965
2961.6431,0.44999
2961.884,0.45057
2962.1252,0.4518
2962.3662,0.45362
2962.6072,0.45553
2962.8484,0.45702
2963.0894,0.45792
2963.3306,0.45848
2963.5715,0.45904
2963.8125,0.45974
2964.0537,0.4605
2964.2947,0.46119
2964.5356,0.46182
2964.7769,0.4625
2965.0178,0.46334
2965.259,0.46436
2965.5,0.46557
2965.741,0.46687
2965.9822,0.4681
2966.2231,0.46903
2966.4641,0.46953
2966.7053,0.46978
2966.9463,0.47016
2967.1875,0.47099
2967.4285,0.47218
2967.6694,0.47336
2967.9106,0.47421
2968.1516,0.47481
2968.3926,0.47553
2968.6338,0.47665
2968.8748,0.47809
2969.116,0.47949
2969.3569,0.48062
2969.5979,0.48163
2969.8391,0.48288
2970.0801,0.48456
2970.321,0.48652
2970.5623,0.4884
2970.8032,0.48987
2971.0444,0.49084
2971.2854,0.49138
2971.5264,0.49174
2971.7676,0.49219
2972.0085,0.49301
2972.2495,0.4943
2972.4907,0.49589
2972.7317,0.49744
2972.9729,0.49871
2973.2139,0.49972
2973.4548,0.50072
2973.696,0.50185
2973.937,0.503
2974.178,0.50395
2974.4192,0.5047
2974.6602,0.50552
2974.9014,0.50675
2975.1423,0.50846
2975.3833,0.51037
2975.6245,0.51208
2975.8655,0.51329
2976.1067,0.51397
2976.3477,0.5143
2976.5886,0.51456
2976.8298,0.51511
2977.0708,0.51623
2977.3118,0.51789
2977.553,0.51968
2977.7939,0.521
2978.0352,0.52161
2978.2761,0.52182
2978.5171,0.52231
2978.7583,0.52352
2978.9993,0.52527
2979.2402,0.52698
2979.4814,0.52826
2979.7224,0.52924
2979.9636,0.53043
2980.2046,0.5322
2980.4456,0.5344
2980.6868,0.53659
2980.9277,0.53839
2981.1687,0.53974
2981.4099,0.54082
2981.6509,0.54181
2981.8921,0.54282
2982.1331,0.54395
2982.374,0.5453
2982.6152,0.54688
2982.8562,0.54858
2983.0972,0.5503
2983.3384,0.55208
2983.5793,0.55408
2983.8206,0.55644
2984.0615,0.55896
2984.3025,0.56128
2984.5437,0.56309
2984.7847,0.56445
2985.0256,0.56573
2985.2668,0.56728
2985.5078,0.56923
2985.749,0.57147
2985.99,0.57382
2986.231,0.57613
2986.4722,0.57828
2986.7131,0.58023
2986.9541,0.58203
2987.1953,0.58389
2987.4363,0.58602
2987.6775,0.58837
2987.9185,0.59069
2988.1594,0.5928
2988.4006,0.59481
2988.6416,0.59692
2988.8826,0.59916
2989.1238,0.6011
2989.3647,0.60227
2989.606,0.60279
2989.8469,0.60343
2990.0879,0.60507
2990.3291,0.6079
2990.5701,0.61115
2990.811,0.61376
2991.0522,0.61529
2991.2932,0.61609
2991.5344,0.61688
2991.7754,0.61799
2992.0164,0.61916
2992.2576,0.62011
2992.4985,0.62086
2992.7395,0.62171
2992.9807,0.62272
2993.2217,0.62375
2993.4629,0.62463
2993.7039,0.62562
2993.9448,0.62729
2994.186,0.62996
2994.427,0.63332
2994.668,0.63662
2994.9092,0.63937
2995.1501,0.64172
2995.3914,0.64416
2995.6323,0.64694
2995.8733,0.64987
2996.1145,0.65243
2996.3555,0.6543
2996.5964,0.65546
2996.8376,0.65615
2997.0786,0.65685
2997.3198,0.65806
2997.5608,0.66018
2997.8018,0.66317
2998.043,0.66655
2998.2839,0.66985
2998.5249,0.67299
2998.7661,0.67629
2999.0071,0.67986
2999.2483,0.68315
2999.4893,0.68545
2999.7302,0.6868
2999.9714,0.68831
3000.2124,0.69117
3000.4534,0.69531
3000.6946,0.69927
3000.9355,0.70157
3001.1768,0.70232
3001.4177,0.70318
3001.6587,0.70558
3001.8999,0.70915
3002.1409,0.71208
3002.3818,0.71318
3002.623,0.71321
3002.864,0.71412
3003.1052,0.71686
3003.3462,0.72036
3003.5872,0.72264
3003.8284,0.72274
3004.0693,0.72145
3004.3103,0.72024
3004.5515,0.71986
3004.7925,0.72005
3005.0337,0.72032
3005.2747,0.72054
3005.5156,0.72079
3005.7568,0.7209
3005.9978,0.72055
3006.2388,0.71982
3006.48,0.71929
3006.7209,0.71937
3006.9622,0.71984
3007.2031,0.72
3007.4441,0.71969
3007.6853,0.71948
3007.9263,0.72006
3008.1672,0.72117
3008.4084,0.72168
3008.6494,0.72088
3008.8906,0.71932
3009.1316,0.71838
3009.3726,0.71886
3009.6138,0.72026
3009.8547,0.72148
3010.0957,0.72222
3010.3369,0.72319
3010.5779,0.72499
3010.8191,0.72697
3011.0601,0.72769
3011.301,0.72652
3011.5422,0.72443
3011.7832,0.72324
3012.0242,0.72399
3012.2654,0.72607
3012.5063,0.72806
3012.7476,0.72899
3012.9885,0.72899
3013.2295,0.72847
3013.4707,0.72754
3013.7117,0.72616
3013.9526,0.72481
3014.1938,0.72431
3014.4348,0.72502
3014.676,0.72629
3014.917,0.72694
3015.158,0.72652
3015.3992,0.72586
3015.6401,0.72625
3015.8811,0.72812
3016.1223,0.73041
3016.3633,0.73141
3016.6045,0.73016
3016.8455,0.72705
3017.0864,0.72352
3017.3276,0.72112
3017.5686,0.72093
3017.8096,0.72319
3018.0508,0.72708
3018.2917,0.73092
3018.533,0.73296
3018.7739,0.73275
3019.0149,0.73143
3019.2561,0.73084
3019.4971,0.73182
3019.738,0.73366
3019.9792,0.73489
3020.2202,0.73493
3020.4614,0.73454
3020.7024,0.73493
3020.9434,0.73641
3021.1846,0.73817
3021.4255,0.73937
3021.6665,0.74023
3021.9077,0.74179
3022.1487,0.74475
3022.3899,0.74863
3022.6309,0.75226
3022.8718,0.75499
3023.113,0.75721
3023.354,0.75965
3023.595,0.76216
3023.8362,0.76364
3024.0771,0.76302
3024.3184,0.7605
3024.5593,0.75757
3024.8003,0.75589
3025.0415,0.75619
3025.2825,0.75808
3025.5234,0.76063
3025.7646,0.76311
3026.0056,0.76532
3026.2468,0.76749
3026.4878,0.76995
3026.7288,0.77289
3026.97,0.77626
3027.2109,0.77971
3027.4519,0.78281
3027.6931,0.78529
3027.9341,0.78727
3028.1753,0.78911
3028.4163,0.79103
3028.6572,0.79284
3028.8984,0.79411
3029.1394,0.79463
3029.3804,0.79473
3029.6216,0.79506
3029.8625,0.79621
3030.1038,0.79839
3030.3447,0.80135
3030.5857,0.80463
3030.8269,0.80775
3031.0679,0.81043
3031.3088,0.8127
3031.55,0.81479
3031.791,0.81704
3032.0322,0.81968
3032.2732,0.82262
3032.5142,0.82565
3032.7554,0.8287
3032.9963,0.83189
3033.2373,0.83529
3033.4785,0.83878
3033.7195,0.842
3033.9607,0.84472
3034.2017,0.84704
3034.4426,0.84937
3034.6838,0.85199
3034.9248,0.85487
3035.1658,0.85792
3035.407,0.86123
3035.6479,0.86512
3035.8892,0.86972
3036.1301,0.87472
3036.3711,0.87951
3036.6123,0.88374
3036.8533,0.88761
3037.0942,0.89168
3037.3354,0.89627
3037.5764,0.90111
3037.8176,0.90564
3038.0586,0.9095
3038.2996,0.9128
3038.5408,0.91599
3038.7817,0.91945
3039.0227,0.92342
3039.2639,0.92799
3039.5049,0.93318
3039.7461,0.93875
3039.9871,0.94419
3040.228,0.94894
3040.4692,0.95284
3040.7102,0.95631
3040.9512,0.96001
3041.1924,0.96433
3041.4333,0.96909
3041.6746,0.97392
3041.9155,0.9786
3042.1565,0.98323
3042.3977,0.98789
3042.6387,0.99247
3042.8796,0.9967
3043.1208,1.00056
3043.3618,1.00442
3043.603,1.00868
3043.844,1.01338
3044.085,1.01807
3044.3262,1.02214
3044.5671,1.02532
3044.8081,1.02787
3045.0493,1.03046
3045.2903,1.03378
3045.5315,1.03818
3045.7725,1.04338
3046.0134,1.04851
3046.2546,1.05243
3046.4956,1.05461
3046.7366,1.05551
3046.9778,1.05633
3047.2188,1.05808
3047.46,1.06079
3047.7009,1.06362
3047.9419,1.06571
3048.1831,1.06692
3048.4241,1.06793
3048.665,1.06936
3048.9063,1.07133
3049.1472,1.07359
3049.3884,1.07606
3049.6294,1.07887
3049.8704,1.08175
3050.1116,1.08378
3050.3525,1.08388
3050.5935,1.08204
3050.8347,1.07962
3051.0757,1.07833
3051.3169,1.0789
3051.5579,1.08048
3051.7988,1.08165
3052.04,1.08174
3052.281,1.08116
3052.522,1.08055
3052.7632,1.07984
3053.0042,1.07837
3053.2454,1.0758
3053.4863,1.07271
3053.7273,1.07007
3053.9685,1.06818
3054.2095,1.06648
3054.4504,1.06427
3054.6917,1.06144
3054.9326,1.05838
3055.1738,1.05529
3055.4148,1.05186
3055.6558,1.04782
3055.897,1.04364
3056.1379,1.04032
3056.3789,1.03827
3056.6201,1.03669
3056.8611,1.03425
3057.1023,1.03069
3057.3433,1.02713
3057.5842,1.02497
3057.8254,1.02438
3058.0664,1.02388
3058.3074,1.02167
3058.5486,1.01725
3058.7896,1.01171
3059.0308,1.00652
3059.2717,1.00231
3059.5127,0.99861
3059.7539,0.99473
3059.9949,0.99035
3060.2358,0.98546
3060.4771,0.98007
3060.718,0.97432
3060.9592,0.96898
3061.2002,0.96517
3061.4412,0.96341
3061.6824,0.9628
3061.9233,0.96161
3062.1643,0.95879
3062.4055,0.95488
3062.6465,0.95155
3062.8877,0.94987
3063.1287,0.94945
3063.3696,0.94904
3063.6108,0.94753
3063.8518,0.9445
3064.0928,0.93978
3064.334,0.93338
3064.575,0.92605
3064.8162,0.91938
3065.0571,0.91498
3065.2981,0.9131
3065.5393,0.91221
3065.7803,0.91022
3066.0212,0.90639
3066.2625,0.90208
3066.5034,0.89919
3066.7446,0.8981
3066.9856,0.89726
3067.2266,0.89486
3067.4678,0.89075
3067.7087,0.88628
3067.9497,0.88256
3068.1909,0.8794
3068.4319,0.87582
3068.6731,0.87149
3068.9141,0.8669
3069.155,0.86255
3069.3962,0.85784
3069.6372,0.85152
3069.8782,0.84316
3070.1194,0.83381
3070.3604,0.82514
3070.6016,0.8179
3070.8425,0.81138
3071.0835,0.80426
3071.3247,0.79591
3071.5657,0.78671
3071.8066,0.77759
3072.0479,0.76917
3072.2888,0.7616
3072.53,0.75459
3072.771,0.74755
3073.012,0.7398
3073.2532,0.73084
3073.4941,0.72088
3073.7351,0.71068
3073.9763,0.70101
3074.2173,0.69196
3074.4585,0.68306
3074.6995,0.67397
3074.9404,0.6651
3075.1816,0.65716
3075.4226,0.65047
3075.6636,0.64452
3075.9048,0.63856
3076.1458,0.63236
3076.387,0.62638
3076.6279,0.62096
3076.8689,0.61579
3077.1101,0.61013
3077.3511,0.60389
3077.592,0.59794
3077.8333,0.5934
3078.0742,0.59036
3078.3154,0.58757
3078.5564,0.58352
3078.7974,0.57787
3079.0386,0.57173
3079.2795,0.56672
3079.5205,0.56358
3079.7617,0.56168
3080.0027,0.55975
3080.2439,0.55706
3080.4849,0.55378
3080.7258,0.55053
3080.967,0.54775
3081.208,0.54545
3081.449,0.54351
3081.6902,0.54174
3081.9312,0.53995
3082.1724,0.53787
3082.4133,0.5353
3082.6543,0.5324
3082.8955,0.52964
3083.1365,0.52741
3083.3774,0.52568
3083.6187,0.52399
3083.8596,0.5219
3084.1008,0.51945
3084.3418,0.51714
3084.5828,0.51554
3084.824,0.5147
3085.0649,0.51413
3085.3059,0.51307
3085.5471,0.51104
3085.7881,0.50823
3086.0293,0.50535
3086.2703,0.50318
3086.5112,0.50208
3086.7524,0.50172
3086.9934,0.50135
3087.2344,0.50028
3087.4756,0.49838
3087.7166,0.49608
3087.9578,0.49391
3088.1987,0.49213
3088.4397,0.49053
3088.6809,0.48878
3088.9219,0.48676
3089.1628,0.48466
3089.4041,0.48284
3089.645,0.48147
3089.8862,0.48055
3090.1272,0.47995
3090.3682,0.47953
3090.6094,0.47915
3090.8503,0.4787
3091.0913,0.47812
3091.3325,0.47747
3091.5735,0.4769
3091.8147,0.47642
3092.0557,0.47583
3092.2966,0.47485
3092.5378,0.4734
3092.7788,0.47173
3093.0198,0.47022
3093.261,0.46905
3093.502,0.46808
3093.7432,0.46707
3093.9841,0.46593
3094.2251,0.4648
3094.4663,0.46383
3094.7073,0.46293
3094.9482,0.46195
3095.1895,0.46087
3095.4304,0.4599
3095.6716,0.45926
3095.9126,0.45889
3096.1536,0.45842
3096.3948,0.45759
3096.6357,0.45647
3096.8767,0.45534
3097.1179,0.45436
3097.3589,0.45336
3097.6001,0.45205
3097.8411,0.45037
3098.082,0.44858
3098.3232,0.44698
3098.5642,0.44563
3098.8052,0.44439
3099.0464,0.44314
3099.2874,0.442
3099.5286,0.44109
3099.7695,0.44026
3100.0105,0.43914
3100.2517,0.43749
3100.4927,0.4355
3100.7336,0.43371
3100.9749,0.43246
3101.2158,0.43154
3101.457,0.43031
3101.698,0.42833
3101.939,0.42576
3102.1802,0.42308
3102.4211,0.42074
3102.6621,0.41884
3102.9033,0.41721
3103.1443,0.41566
3103.3855,0.41408
3103.6265,0.41238
3103.8674,0.41037
3104.1086,0.40791
3104.3496,0.40517
3104.5906,0.40257
3104.8318,0.40047
3105.0728,0.3988
3105.314,0.39712
3105.5549,0.39499
3105.7959,0.39237
3106.0371,0.38968
3106.2781,0.38736
3106.519,0.38552
3106.7603,0.38388
3107.0012,0.38208
3107.2424,0.37996
3107.4834,0.37775
3107.7244,0.37577
3107.9656,0.3742
3108.2065,0.37298
3108.4475,0.37185
3108.6887,0.37052
3108.9297,0.36883
3109.1709,0.36682
3109.4119,0.36468
3109.6528,0.36266
3109.894,0.36094
3110.135,0.3595
3110.376,0.35814
3110.6172,0.35663
3110.8582,0.35486
3111.0994,0.35293
3111.3403,0.35112
3111.5813,0.34965
3111.8225,0.34853
3112.0635,0.3475
3112.3044,0.34619
3112.5457,0.34441
3112.7866,0.34226
3113.0278,0.34006
3113.2688,0.33812
3113.5098,0.3365
3113.751,0.33502
3113.9919,0.33348
3114.2329,0.33183
3114.4741,0.33018
3114.7151,0.32867
3114.9563,0.32728
3115.1973,0.32598
3115.4382,0.3248
3115.6794,0.32391
3115.9204,0.32335
3116.1614,0.32291
3116.4026,0.32216
3116.6436,0.32082
3116.8848,0.31896
3117.1257,0.31692
3117.3667,0.315
3117.6079,0.31331
3117.8489,0.31176
3118.0898,0.31029
3118.3311,0.30903
3118.572,0.30811
3118.8132,0.30745
3119.0542,0.30672
3119.2952,0.30571
3119.5364,0.30446
3119.7773,0.30321
3120.0183,0.30215
3120.2595,0.3012
3120.5005,0.30011
3120.7417,0.2988
3120.9827,0.29744
3121.2236,0.29624
3121.4648,0.29533
3121.7058,0.29458
3121.9468,0.29379
3122.188,0.29287
3122.429,0.29184
3122.6702,0.29071
3122.9111,0.28946
3123.1521,0.28808
3123.3933,0.28665
3123.6343,0.28526
3123.8752,0.28395
3124.1165,0.28266
3124.3574,0.28133
3124.5986,0.28003
3124.8396,0.27887
3125.0806,0.27786
3125.3218,0.27686
3125.5627,0.27572
3125.8037,0.27442
3126.0449,0.27316
3126.2859,0.2721
3126.5271,0.27115
3126.7681,0.27
3127.009,0.26842
3127.2502,0.26643
3127.4912,0.26428
3127.7322,0.26226
3127.9734,0.26046
3128.2144,0.25884
3128.4556,0.25734
3128.6965,0.25593
3128.9375,0.25459
3129.1787,0.25332
3129.4197,0.25214
3129.6606,0.2511
3129.9019,0.25015
3130.1428,0.24906
3130.384,0.24758
3130.625,0.24561
3130.866,0.24346
3131.1072,0.24157
3131.3481,0.24012
3131.5891,0.23881
3131.8303,0.23712
3132.0713,0.2349
3132.3125,0.23259
3132.5535,0.2309
3132.7944,0.23012
3133.0356,0.22978
3133.2766,0.22901
3133.5176,0.22735
3133.7588,0.22501
3133.9998,0.22257
3134.241,0.22041
3134.4819,0.21853
3134.7229,0.21673
3134.9641,0.21494
3135.2051,0.21325
3135.446,0.21173
3135.6873,0.21029
3135.9282,0.20879
3136.1694,0.2072
3136.4104,0.20559
3136.6514,0.20403
3136.8926,0.20243
3137.1335,0.20069
3137.3745,0.19893
3137.6157,0.19747
3137.8567,0.19653
3138.0979,0.19598
3138.3389,0.19541
3138.5798,0.19447
3138.821,0.19316
3139.062,0.19177
3139.303,0.19059
3139.5442,0.18971
3139.7852,0.18903
3140.0264,0.18843
3140.2673,0.18783
3140.5083,0.18712
3140.7495,0.18621
3140.9905,0.18506
3141.2314,0.1838
3141.4727,0.18258
3141.7136,0.18143
3141.9548,0.18019
3142.1958,0.1787
3142.4368,0.17706
3142.678,0.17559
3142.9189,0.17452
3143.1599,0.17375
3143.4011,0.17288
3143.6421,0.17159
3143.8833,0.16992
3144.1243,0.16818
3144.3652,0.16667
3144.6064,0.1654
3144.8474,0.16426
3145.0884,0.16314
3145.3296,0.16205
3145.5706,0.16098
3145.8118,0.15983
3146.0527,0.15847
3146.2937,0.15696
3146.5349,0.1555
3146.7759,0.15422
3147.0168,0.15303
3147.2581,0.15164
3147.499,0.14997
3147.7402,0.14821
3147.9812,0.14674
3148.2222,0.14572
3148.4634,0.14494
3148.7043,0.14399
3148.9453,0.14265
3149.1865,0.14099
3149.4275,0.13925
3149.6687,0.13756
3149.9097,0.13589
3150.1506,0.13417
3150.3918,0.13244
3150.6328,0.13078
3150.8738,0.12925
3151.115,0.12784
3151.356,0.12651
3151.5972,0.12533
3151.8381,0.12443
3152.0791,0.12384
3152.3203,0.12348
3152.5613,0.1232
3152.8022,0.12283
3153.0435,0.12224
3153.2844,0.12134
3153.5256,0.1201
3153.7666,0.11865
3154.0076,0.11726
3154.2488,0.11618
3154.4897,0.11544
3154.7307,0.11483
3154.9719,0.11406
3155.2129,0.11305
3155.4541,0.11194
3155.6951,0.11089
3155.936,0.10992
3156.1772,0.10887
3156.4182,0.10759
3156.6592,0.10614
3156.9004,0.10467
3157.1414,0.10338
3157.3826,0.10226
3157.6235,0.10127
3157.8645,0.1003
3158.1057,0.09931
3158.3467,0.09823
3158.5876,0.09701
3158.8289,0.09566
3159.0698,0.09434
3159.311,0.09321
3159.552,0.0924
3159.793,0.09185
3160.0342,0.09144
3160.2751,0.09102
3160.5161,0.09051
3160.7573,0.08981
3160.9983,0.08887
3161.2395,0.08778
3161.4805,0.0868
3161.7214,0.08625
3161.9626,0.08623
3162.2036,0.08646
3162.4446,0.08643
3162.6858,0.08577
3162.9268,0.0846
3163.168,0.08335
3163.4089,0.08246
3163.6499,0.08207
3163.8911,0.08198
3164.1321,0.08191
3164.373,0.08172
3164.6143,0.08138
3164.8552,0.08097
3165.0964,0.08058
3165.3374,0.08028
3165.5784,0.08009
3165.8196,0.07997
3166.0605,0.07979
3166.3015,0.07943
3166.5427,0.0789
3166.7837,0.07838
3167.0249,0.07811
3167.2659,0.07818
3167.5068,0.07847
3167.748,0.07875
3167.989,0.07884
3168.23,0.07868
3168.4712,0.07835
3168.7122,0.078
3168.9534,0.07775
3169.1943,0.07769
3169.4353,0.07774
3169.6765,0.0777
3169.9175,0.07854
3170.1584,0.07788
3170.3997,0.07714
3170.6406,0.07662
3170.8818,0.07644
3171.1228,0.07643
3171.3638,0.07627
3171.605,0.07582
3171.8459,0.07521
3172.0869,0.07474
3172.3281,0.07453
3172.5691,0.07444
3172.8103,0.07426
3173.0513,0.07392
3173.2922,0.07359
3173.5334,0.07341
3173.7744,0.0734
3174.0154,0.07338
3174.2566,0.07317
3174.4976,0.07279
3174.7388,0.07232
3174.9797,0.07183
3175.2207,0.07126
3175.4619,0.07055
3175.7029,0.06974
3175.9438,0.069
3176.1851,0.0684
3176.426,0.06788
3176.6672,0.06726
3176.9082,0.06651
3177.1492,0.0658
3177.3904,0.06543
3177.6313,0.06553
3177.8723,0.0659
3178.1135,0.06607
3178.3545,0.06562
3178.5957,0.0645
3178.8367,0.06303
3179.0776,0.06165
3179.3188,0.06067
3179.5598,0.06009
3179.8008,0.05966
3180.042,0.05914
3180.283,0.05849
3180.5242,0.05784
3180.7651,0.05732
3181.0061,0.05684
3181.2473,0.05617
3181.4883,0.05519
3181.7292,0.05403
3181.9705,0.053
3182.2114,0.05228
3182.4526,0.05175
3182.6936,0.05113
3182.9346,0.0503
3183.1758,0.0494
3183.4167,0.04874
3183.6577,0.04842
3183.8989,0.04829
3184.1399,0.04808
3184.3811,0.04768
3184.6221,0.04716
3184.863,0.04663
3185.1042,0.04609
3185.3452,0.04542
3185.5862,0.04458
3185.8274,0.04367
3186.0684,0.0428
3186.3096,0.04198
3186.5505,0.04112
3186.7915,0.04014
3187.0327,0.03911
3187.2737,0.03819
3187.5146,0.03742
3187.7559,0.03678
3187.9968,0.03614
3188.238,0.03552
3188.479,0.03502
3188.72,0.03474
3188.9612,0.03463
3189.2021,0.03448
3189.4431,0.03413
3189.6843,0.03355
3189.9253,0.03286
3190.1665,0.03221
3190.4075,0.03173
3190.6484,0.03143
3190.8896,0.03119
3191.1306,0.03081
3191.3716,0.03013
3191.6128,0.0292
3191.8538,0.0283
3192.095,0.02777
3192.3359,0.02773
3192.5769,0.02794
3192.8181,0.02797
3193.0591,0.02762
3193.3,0.02708
3193.5413,0.02668
3193.7822,0.02654
3194.0234,0.02644
3194.2644,0.02602
3194.5054,0.02516
3194.7466,0.02408
3194.9875,0.02311
3195.2285,0.02242
3195.4697,0.02198
3195.7107,0.02175
3195.9519,0.02172
3196.1929,0.02181
3196.4338,0.02171
3196.675,0.0211
3196.916,0.01997
3197.157,0.01878
3197.3982,0.01821
3197.6392,0.01851
3197.8804,0.01921
3198.1213,0.01943
3198.3623,0.01868
3198.6035,0.01725
3198.8445,0.01584
3199.0854,0.01496
3199.3267,0.01459
3199.5676,0.01431
3199.8088,0.01379